S, x, y, nx, ny, theta, m
0.,0.,2.555838023331763,-11.382524975017569,0.,0.,-4.662318288425692
0.0008333333333333334,0.004992743222119747,2.5557798966841085,-11.362885935731601,0.012922953839824197,-0.023278814424190622,-4.661689586118229
0.0016666666666666668,0.009982786621698169,2.5556055953285313,-11.343104808307832,0.02608012785828292,-0.04655137157793327,-4.6598081353859575
0.0025,0.014967419790873907,2.5553152493967186,-11.323148013224028,0.039460117485243355,-0.06981141039729788,-4.656681044404486
0.0033333333333333335,0.0199439555125717,2.5549090921244137,-11.302982728844977,0.053051450846330214,-0.09305274146571385,-4.652316445594546
0.004166666666666667,0.024909715055674027,2.554387453102969,-11.282576668127753,0.06684254894232906,-0.11626920874588968,-4.646723464460221
0.005,0.029862036725608082,2.553750750549595,-11.261898099350065,0.08082177711747987,-0.13945470274563504,-4.639912134703019
0.005833333333333334,0.03479828028454098,2.5529994970858354,-11.240915889169239,0.094977458379751,-0.16260316761770685,-4.631893460070172
0.006666666666666667,0.0397158310166861,2.552134291973625,-11.219599466095561,0.1092979063542023,-0.1857086038924149,-4.622679339229276
0.007500000000000001,0.044612104173240616,2.551155823747461,-11.197918848886511,0.12377144191124982,-0.2087650746826629,-4.612282595957754
0.008333333333333333,0.04948454799250445,2.5500648659999134,-11.175844632348626,0.13838641508127175,-0.2317667085404747,-4.6007169388773255
0.009166666666666667,0.05433064267185502,2.5488622648241948,-11.153347916702343,0.15313121921404527,-0.254707694898744,-4.587996833715646
0.01,0.05914792838229842,2.5475489856919875,-11.130400659335304,0.16799435478139566,-0.27758233305076707,-4.574137998474393
0.010833333333333334,0.06393396742527856,2.546126041524335,-11.106975151500018,0.1829643567123514,-0.30038496366110495,-4.559156647626007
0.011666666666666667,0.06868636210017955,2.544594508691267,-11.083044187642571,0.19802985496539222,-0.3231099977092361,-4.543069666558857
0.0125,0.07340280840447706,2.5429555918555757,-11.05858160741674,0.2131797357248262,-0.3457520041404578,-4.525895307739273
0.013333333333333334,0.07808101663201757,2.5412105141137995,-11.033561403173554,0.22840292609859617,-0.36830557567025957,-4.507652020695146
0.014166666666666668,0.08271875913754369,2.539360584109191,-11.007958312891857,0.2436885178092281,-0.3907654130231667,-4.488359163673112
0.015000000000000001,0.0873138980634985,2.5374072064363844,-10.98174797340686,0.25902588641384583,-0.4131263641159063,-4.468037129967077
0.015833333333333335,0.09186430883430996,2.535351798474386,-10.95490615193612,0.2744044517028412,-0.43538329855395347,-4.446706451384512
0.016666666666666666,0.09636796476056866,2.5331958709574036,-10.927409618000995,0.2898139576488041,-0.45753124846003485,-4.42438866935249
0.0175,0.10082291387129134,2.530940996359627,-10.89923584355201,0.30524441015128156,-0.4795653669540191,-4.401106000551292
0.018333333333333333,0.10522722378076768,2.528588763266703,-10.87036250095466,0.3206858834770787,-0.501480839742208,-4.376880836714288
0.01916666666666667,0.10957908683534452,2.5261408498603486,-10.840768477455692,0.33612890675129237,-0.5232730574399681,-4.351736552767777
0.02,0.11387674865544833,2.523598967222505,-10.810433148201854,0.3515642115100373,-0.5449374967784679,-4.325696889633843
0.020833333333333336,0.11811849218454146,2.5209648499790824,-10.779336270012733,0.366982670161875,-0.5664696967856978,-4.298785846543811
0.021666666666666667,0.12230273776826486,2.5182403057696767,-10.747458938895662,0.38237569324069515,-0.5878654230959883,-4.2710282358525635
0.022500000000000003,0.12642793686136083,2.5154271562606514,-10.714782540250582,0.3977348167014926,-0.6091204920613541,-4.242449028892632
0.023333333333333334,0.13049259320845305,2.5125272489531967,-10.681289007517005,0.41305178416283156,-0.6302308080030717,-4.213073482269949
0.02416666666666667,0.1344953753298061,2.5095424902270524,-10.64696195777282,0.4283190256267969,-0.6511925513569686,-4.182927519103084
0.025,0.13843497941779462,2.506474794429879,-10.611785287149688,0.4435290890918302,-0.6720019488358219,-4.15203715463651
0.025833333333333337,0.14231011311777392,2.503326080812,-10.575743004169201,0.4586745691631276,-0.692655246060808,-4.12042845923274
0.02666666666666667,0.14611963688386495,2.5000983096907308,-10.538820806373495,0.4737487172269702,-0.7131489504118776,-4.088127965542536
0.0275,0.14986251997307007,2.496793458396827,-10.501005689084929,0.4887452698592615,-0.7334797604064555,-4.0551623982107685
0.028333333333333335,0.15353773397509698,2.493413503979358,-10.46228468048112,0.5036579749660343,-0.7536443789115601,-4.021558478746705
0.029166666666666667,0.15714429894613716,2.489960432917531,-10.422645332751069,0.5184807940009959,-0.7736395911302884,-3.9873430377168284
0.030000000000000002,0.16068141690403595,2.4864362458889393,-10.38207750810171,0.5332085217750853,-0.7934625069976351,-3.9525430582166345
0.030833333333333334,0.1641483324132189,2.482842941306719,-10.340571699113084,0.5478361562824432,-0.813110316488903,-3.9171854913509585
0.03166666666666667,0.1675442927230546,2.4791825181271085,-10.298118424877668,0.5623587072966042,-0.832580214056392,-3.881297294787211
0.0325,0.170868652489763,2.475456975020801,-10.254709662244045,0.5767716897739952,-0.851869589795212,-3.8449054122072397
0.03333333333333333,0.1741209072635339,2.4716682960141823,-10.210339557792183,0.5910713033793444,-0.8709761011680944,-3.8080365896887463
0.03416666666666667,0.1773005621130377,2.4678184625509467,-10.165002433434251,0.6052537964935291,-0.8898974248983742,-3.770717539943806
0.035,0.18040714088761145,2.4639094547829488,-10.118692879225982,0.6193155075943901,-0.9086312724949945,-3.732974958438284
0.035833333333333335,0.18344031837518965,2.459943225232927,-10.071408006332463,0.6332535268363215,-0.9271756497049723,-3.6948351729720548
0.03666666666666667,0.1863998418188815,2.4559217053150224,-10.023146302655931,0.6470653177458717,-0.9455287101918561,-3.6563242306515535
0.037500000000000006,0.18928545903313315,2.451846826092089,-9.973906270628907,0.6607483470888641,-0.9636886089342783,-3.617468173970515
0.03833333333333334,0.19209697412073035,2.4477205039451966,-9.923687421020835,0.674300368508588,-0.9816536136026182,-3.5782928515094508
0.03916666666666667,0.19483433367970673,2.443544602744953,-9.872492193585066,0.6877198862707417,-0.9994222919824752,-3.5388234033825565
0.04,0.19749750636020064,2.439320975214223,-9.82032355546736,0.7010055256069226,-1.0169932612253259,-3.499084817219857
0.04083333333333333,0.20008646583068687,2.4350514725709957,-9.767184564735176,0.7141559376151072,-1.0343651485874459,-3.459102061272397
0.04166666666666667,0.20260128455555906,2.4307379007882144,-9.713080476769337,0.7271703067269584,-1.0515367968899358,-3.41889948714703
0.0425,0.20504212464617494,2.4263820147451383,-9.658018802591366,0.7400483168101538,-1.0685072552461512,-3.378500735785381
0.043333333333333335,0.20740915140239982,2.4219855666464007,-9.602007155810234,0.7527896708190775,-1.0852755810196957,-3.337929409945474
0.04416666666666667,0.20970254633500102,2.4175503015218407,-9.545053495678461,0.7653941589067067,-1.1018408662737724,-3.2972090179146085
0.045000000000000005,0.21192260924688613,2.413077884489728,-9.487168988625221,0.7778622469784774,-1.1182024872830303,-3.2563619400517236
0.04583333333333334,0.21406969072104715,2.4085699389300745,-9.428366362639757,0.7901947016695113,-1.1343599506921505,-3.2154099542073986
0.04666666666666667,0.2161441414894751,2.404028088038241,-9.368658351838908,0.8023922905863682,-1.1503127635983106,-3.1743748354747057
0.0475,0.2181463189555694,2.3994539508341153,-9.308057868597174,0.8144558192287628,-1.1660604487196737,-3.133278301749819
0.04833333333333334,0.2200766731721709,2.3948490679326357,-9.246580652912385,0.8263866433020671,-1.1816027679287169,-3.0921409401728095
0.04916666666666667,0.22193572048601642,2.390214910412048,-9.184244699707317,0.8381865279708833,-1.196939668840386,-3.050982307411945
0.05,0.22372397855040582,2.3855529469517385,-9.121068066078593,0.8498572476766424,-1.2120711038493748,-3.009821922881256
0.050833333333333335,0.22544196565156366,2.380864645817619,-9.057068829869852,0.861400580588051,-1.226997026874802,-2.96867930042528
0.05166666666666667,0.22709024732209754,2.3761514243574937,-8.9922667494174,0.87281859970133,-1.2417175263163867,-2.9275732001283714
0.052500000000000005,0.22866946538799135,2.371414600567434,-8.92668440927554,0.8841138682749267,-1.2562329254024989,-2.886520876178373
0.05333333333333334,0.23018026830683694,2.366655480965532,-8.860344658336535,0.8952889945340428,-1.270543570705128,-2.8455394039616033
0.05416666666666667,0.23162330453622604,2.3618753720698793,-8.793270345492653,0.9063465867038799,-1.2846498087962643,-2.8046458588643834
0.055,0.23299923974076608,2.357075557425332,-8.725485009006778,0.9172893654440527,-1.298552040196312,-2.7638569681186436
0.05583333333333334,0.23430880535859758,2.3522572122867293,-8.657014838972223,0.9281204932255744,-1.3122508929163081,-2.7231877814458514
0.05666666666666667,0.23555274760541864,2.347421480038125,-8.58788662743667,0.9388432362142719,-1.3257470539133576,-2.6826528439893274
0.0575,0.23673181268556642,2.34256950405928,-8.518127166008549,0.9494608605131756,-1.339041210129167,-2.642266700792707
0.058333333333333334,0.23784675111382467,2.3377024207883683,-8.44776343684301,0.9599766616909748,-1.3521340633652732,-2.6020437893819066
0.05916666666666667,0.23889835530016376,2.3328212776241437,-8.376824196456536,0.9703942294801209,-1.3650264821542115,-2.561997140360752
0.060000000000000005,0.2398874396832339,2.327927060352957,-8.30533908107522,0.9807173136174825,-1.3777194379926034,-2.5221387963418005
0.060833333333333336,0.24081481876427377,2.3230207535338603,-8.233337725636858,0.9909496646737393,-1.3902139037574957,-2.4824807794764348
0.06166666666666667,0.2416813075939013,2.318103340796122,-8.160849792933655,1.0010950371687164,-1.4025108542906992,-2.443035097260204
0.0625,0.24248774091144035,2.313175749886861,-8.087905778882794,1.0111573300896757,-1.414611357744228,-2.4038128584711003
0.06333333333333334,0.2432349752504324,2.308238822140485,-8.014536921901952,1.0211406055379064,-1.4265166104795035,-2.3648237705688775
0.06416666666666668,0.2439238679037133,2.303293391505153,-7.940774454250471,1.0310489318672262,-1.4382278177656005,-2.3260774197542395
0.065,0.24455527616415285,2.298340291929002,-7.866649608190054,1.040886377431721,-1.449746184871684,-2.2875833922275364
0.06583333333333334,0.24513006362558576,2.293380332132764,-7.792193858121677,1.0506570591180073,-1.4610729546861028,-2.249350862614436
0.06666666666666667,0.2456491080649483,2.2884142277070127,-7.7174388870063275,1.0603652010364228,-1.4722094910030854,-2.21138748401285
0.0675,0.2461132881071742,2.283442672866432,-7.642416243926276,1.0700150328294928,-1.4831571806023538,-2.173700559719425
0.06833333333333334,0.24652348237719715,2.2784663618257057,-7.567157477963799,1.0796107841397429,-1.4939174102636292,-2.136297393030811
0.06916666666666667,0.24688057074335626,2.2734859809199337,-7.491694167512209,1.0891566948083107,-1.504491577203266,-2.0991851571386535
0.07,0.24718543738610252,2.268502140184711,-7.416057525523507,1.0986570332612182,-1.5148811634630612,-2.0623697751141785
0.07083333333333333,0.2474389649837441,2.2635154070599866,-7.340278232483689,1.1081160483847314,-1.5250876902275192,-2.025856477037766
0.07166666666666667,0.24764203602812604,2.258526348536245,-7.264386948926292,1.1175379873097764,-1.5351126787357632,-1.9896504858918322
0.07250000000000001,0.24779553336470042,2.253535531605444,-7.188414366653485,1.1269271009459558,-1.5449576510287517,-1.953757023409089
0.07333333333333333,0.2479003393483172,2.248543483268089,-7.112390764001301,1.136287632507513,-1.5546241682474466,-1.9181806534264936
0.07416666666666667,0.24795732633360962,2.2435506524262334,-7.0363448126307775,1.1456237135578764,-1.5641138473486949,-1.8829246875676426
0.07500000000000001,0.24796736496570257,2.2385574798697885,-6.960304958026933,1.1549394568953937,-1.5734283095631225,-1.8479923098044981
0.07583333333333334,0.24793132588972092,2.2335644063886626,-6.884299645674783,1.164238975318413,-1.582569176121356,-1.8133867041090226
0.07666666666666667,0.24785007975821835,2.2285718727535238,-6.8083573214941735,1.173526381724832,-1.5915380682920048,-1.7791110540818833
0.0775,0.24772449403401317,2.2235802918682497,-6.732505878348473,1.1828057570342971,-1.6003366286038792,-1.745168087047756
0.07833333333333334,0.24755541747559942,2.218589997810225,-6.656770823699079,1.1920809694441135,-1.6089665363000294,-1.711559296198727
0.07916666666666668,0.2473436932724542,2.213601311175716,-6.581177056065163,1.2013558208391963,-1.6174294711679473,-1.6782859775015522
0.08,0.24709016461405453,2.2086145525609915,-6.505749473965896,1.2106341131044605,-1.6257271129951238,-1.6453494269229874
0.08083333333333334,0.24679567468987745,2.203630042562319,-6.430512975920447,1.2199196481248211,-1.6338611415690512,-1.6127509404297868
0.08166666666666667,0.24646106480168914,2.1986480929336065,-6.35549218986533,1.2292162086099592,-1.641833241418293,-1.5804916717008957
0.0825,0.2460871543154673,2.1936689511670444,-6.2807091811368805,1.2385273162078267,-1.6496451108926284,-1.5485718025610795
0.08333333333333334,0.2456747489668568,2.188692837054523,-6.206184607563396,1.24785631819843,-1.6572984438156122,-1.5169911275259393
0.08416666666666667,0.24522465430904722,2.183719970320026,-6.131939112709599,1.257206559226766,-1.6647949336254293,-1.4857494412901653
0.085,0.24473767589522813,2.178750570687537,-6.057993340140205,1.2665813839378335,-1.6721362737602645,-1.4548465385484453
0.08583333333333334,0.2442146188206503,2.173784856205108,-5.9843678673485075,1.2759841326261032,-1.6793241583240741,-1.424282187208762
0.08666666666666667,0.24365627001273618,2.168823004869267,-5.911081268626182,1.2854179168315496,-1.686360278681325,-1.3940555805687809
0.08750000000000001,0.24306339282937062,2.1638651548988705,-5.83814980425453,1.29488552545002,-1.6932463092093912,-1.364165391379573
0.08833333333333333,0.24243674907364968,2.1589114429174923,-5.765589605917187,1.3043897239087894,-1.6999839220307467,-1.3346102770457584
0.08916666666666667,0.24177710054866938,2.153962005548706,-5.693416805297787,1.3139332776351327,-1.7065747892678647,-1.3053888949719545
0.09000000000000001,0.241085209048517,2.1490169793601144,-5.621647531791333,1.323518952084024,-1.713020583081917,-1.2764999015877012
0.09083333333333334,0.2403618258535054,2.1440764822293823,-5.550296806108925,1.3331493729676591,-1.7193229689751182,-1.2479417031151288
0.09166666666666667,0.23960767161336186,2.1391405892053634,-5.4793768083192855,1.342826715989343,-1.725483580133837,-1.2197121980886338
0.09250000000000001,0.23882346143821556,2.13420936964547,-5.408899273578357,1.35255306788729,-1.7315040416171557,-1.1918092323348735
0.09333333333333334,0.23800991043819578,2.129282892907115,-5.338875937042084,1.3623305153997132,-1.7373859784841557,-1.164230651680504
0.09416666666666668,0.23716773372343172,2.12436122834771,-5.269318533866404,1.3721611452648272,-1.7431310157939193,-1.1369743019521812
0.095,0.23629764227025948,2.1194444392493184,-5.200238386817506,1.3820469861178866,-1.7487407744919174,-1.1100379550438868
0.09583333333333334,0.23540031709694859,2.1145325536307613,-5.131644214376816,1.3919895949248136,-1.7542168361018626,-1.0834190179509777
0.09666666666666668,0.23447642602315655,2.109625587373157,-5.063543736662174,1.4019903012354131,-1.759560761053852,-1.057114803160038
0.0975,0.23352663681103009,2.104723556374381,-4.995944672494998,1.4120504332066037,-1.764774109609716,-1.031122624103697
0.09833333333333334,0.23255161722271592,2.0998264765323076,-4.9288547406967025,1.422171318995304,-1.769858442031286,-1.0054397942145838
0.09916666666666667,0.2315520283324867,2.0949343615849676,-4.862281504648849,1.4323542453975942,-1.774815294581604,-0.9800636496754002
0.1,0.23052851625950296,2.0900471981336737,-4.796230266389948,1.4426000221232884,-1.779646219898895,-0.9549911872319806
0.10083333333333334,0.22948171064115203,2.0851649705783855,-4.730714312332684,1.4528606076635875,-1.7843527057643,-0.9302195154619106
0.10166666666666667,0.22841223542487818,2.0802876575744724,-4.6657463694545465,1.4630880134077113,-1.7889362385176126,-0.9057457065015225
0.10250000000000001,0.22732071632773387,2.0754152308954072,-4.601330503833883,1.4732829060770867,-1.7933983150066315,-0.8815667560837321
0.10333333333333335,0.22620775960483108,2.0705476560159806,-4.537470076449654,1.4834459810925755,-1.7977403911862755,-0.8576796830452231
0.10416666666666667,0.2250739668404101,2.0656848920137576,-4.474167888594154,1.4935779381195042,-1.8019639169787194,-0.834081467297912
0.10500000000000001,0.2239199322245147,2.0608268928149007,-4.411426246467358,1.503679475186106,-1.806070328851485,-0.8107690760806928
0.10583333333333333,0.22274623902861082,2.0559736048747594,-4.3492467338589815,1.5137512871374275,-1.8100610433061195,-0.7877394604121469
0.10666666666666667,0.22155346570835058,2.051124971519583,-4.287630627079291,1.523794066420009,-1.8139374678956954,-0.7649895674446304
0.10750000000000001,0.22034217977942427,2.0462809295693876,-4.22657854225028,1.5338084966064547,-1.8177009893505658,-0.7425163469511122
0.10833333333333334,0.21911294199453926,2.0414414114445836,-4.166090664110994,1.543795257965579,-1.8213529818382035,-0.7203167431130334
0.10916666666666668,0.21786630498916962,2.0366063456229,-4.106166749502748,1.553755019175982,-1.8248948033285544,-0.6983877189253406
0.11,0.21660281449274782,2.0317756564602973,-4.046806139496499,1.563688443460584,-1.8283277986811985,-0.6767262385960502
0.11083333333333334,0.21532300751266947,2.026949264251319,-3.988007730751644,1.5735961808919685,-1.8316532953965996,-0.6553292887575013
0.11166666666666668,0.21402741401646244,2.0221270855597195,-3.929770029176513,1.5834788733511946,-1.8348726072555785,-0.6341938660360776
0.1125,0.2127165564004003,2.0173090338590884,-3.872091189618157,1.593337148811243,-1.8379870326901908,-0.6133169944324701
0.11333333333333334,0.21139094967229047,2.012495019097798,-3.8149689858265967,1.6031716245127519,-1.8409978554860058,-0.5926957154337368
0.11416666666666668,0.21005110321764434,2.0076849492851823,-3.7584009599780726,1.6129829055699907,-1.843906347898595,-0.5723270965732802
0.115,0.20869751331183484,2.0028787272553386,-3.702384061316512,1.6227715721889675,-1.8467137555717503,-0.5522082553796439
0.11583333333333334,0.2073306747505223,1.9980762552139275,-3.6469151686170416,1.6325382019958221,-1.8494213211660018,-0.532336314283339
0.11666666666666667,0.20595107837414897,1.9932774338500334,-3.5919909881116707,1.6422833650187696,-1.8520302794114674,-0.512708410737619
0.11750000000000001,0.20455919966107985,1.9884821594714845,-3.5376076676674777,1.6520075933073388,-1.8545418331709826,-0.49332176839753006
0.11833333333333335,0.2031555103675121,1.9836903277232665,-3.483761249398138,1.661711407471613,-1.8569571773045495,-0.47417363916344163
0.11916666666666667,0.20174048141228354,1.9789018338265785,-3.430447731154372,1.6713953271328263,-1.8592775050832373,-0.45526127612298317
0.12000000000000001,0.20031457158882135,1.9741165692419516,-3.3776626528113316,1.6810598444219247,-1.861503985290155,-0.4365819919597547
0.12083333333333333,0.1988782305984148,1.9693344239740136,-3.325401315877227,1.690705423295184,-1.8636377674970401,-0.41813316838802234
0.12166666666666667,0.19743190790301668,1.9645552880696175,-3.273659021767565,1.7003325265185225,-1.8656800007187406,-0.3999121903821835
0.12250000000000001,0.19597604722747305,1.9597790502625467,-3.222430892542886,1.7099416014868976,-1.8676318222575106,-0.3819164782523219
0.12333333333333334,0.19451107897738668,1.9550055972761151,-3.1717117176462137,1.7195330545899317,-1.869494341815384,-0.3641435514345162
0.12416666666666668,0.19303743167624368,1.9502348157278144,-3.1214962539073006,1.7291072855090999,-1.871268665124133,-0.34659094630757187
